Time,Voltage,Current,Temperature
1,24.5,2.1,28
2,24.4,2.0,29
3,24.4,2.2,29
4,24.3,2.3,30
5,24.2,2.4,31
6,24.1,2.5,31
7,24.0,2.4,32
8,23.9,2.6,33
9,23.8,2.5,34
10,23.7,2.7,35
11,23.6,2.8,36
12,23.5,2.7,37
13,23.4,2.9,38
14,23.3,3.0,40
15,23.2,3.1,42
